# $Id: FZ_JW_0001-0004.txt 257 2014-01-06 23:52:28Z pwessel $
> -IFZ_JW_0001-0004 -L"Untitled Path" -T"JW, USYD"
122.654799405	-45.3442001007
122.520251895	-45.7845374044
122.397935978	-46.3104958506
122.251156876	-46.8853806639
122.067683	-47.6682025373
121.823051164	-48.3287084929
121.639577288	-48.9892144486
121.333787493	-49.6864151796
121.015766107	-50.2735315846
120.844523823	-50.8728795814
120.55096562	-51.6679330465
120.318565376	-52.3431169123
120.232944234	-52.6978330737
