# $Id: FZ_JW_0001-0053.txt 257 2014-01-06 23:52:28Z pwessel $
> -IFZ_JW_0001-0053 -L"Untitled Path" -T"JW, USYD"
37.0475006837	-64.8724961898
37.9062173694	-63.4699339642
39.0232361595	-61.8256010616
39.6056558294	-60.7594420162
40.4499000477	-59.9301735391
41.1769441505	-59.452092698
42.1636439358	-58.9064243649
42.9691396144	-58.4608310108
43.7746352929	-58.1352050982
44.9743097078	-57.5867825085
46.2425369464	-57.0842046197
47.4079349494	-56.552920236
48.5047801287	-55.9188066167
