# $Id: FZ_JW_0001-0219.txt,v 1.1 2010/08/19 22:13:47 myself Exp $
> -LFZ_JW_0001-0219
63.9295723704	-34.337657152
64.2176670317	-34.163054327
64.5930631056	-33.9098802307
64.9509988969	-33.6654362756
65.1954428519	-33.5606745806
65.3875059594	-33.3686114731
65.893854152	-33.0630565293
66.4089324859	-32.6963905967
66.862899831	-32.3122643816
67.212105481	-32.0328998616
67.6835331086	-31.6487736465
68.0065483349	-31.386869409
68.4867061037	-30.9765527701
