# $Id: DZ_KM_0001-0196.txt 181 2011-07-29 23:51:55Z pwessel $
> -IDZ_KM_0001-0196 -L"Untitled Path" -T"KM, USYD"
6.94577111337	-60.7061342146
6.00921017838	-60.4589472263
5.58717112784	-60.2932073586
5.00399096151	-60.191124075
4.42346350365	-60.1150015607
4.05487104527	-60.0695501088
3.70599257689	-60.1066849825
3.18491342712	-60.0422888708
2.26449626295	-59.8955386591
1.25324898148	-59.6427276576
0.618825819861	-59.343735771
-0.903311527908	-58.9895202178
-1.75855952553	-58.8621541143
