# $Id: FZ_KM_0001-0250.txt 181 2011-07-29 23:51:55Z pwessel $
> -IFZ_KM_0001-0250 -L"Untitled Path" -T"KM, USYD"
66.0853258759	-11.3082815521
65.7371262255	-11.5588721893
65.3153378108	-11.9004061598
65.0656313122	-12.105174668
64.7501486031	-12.3269446204
64.4221071704	-12.5575435845
64.1650695004	-12.7489584869
63.7806079085	-13.0042534688
63.3491838953	-13.2855062665
63.1245986976	-13.405647044
62.932430723	-13.467851591
62.6930444891	-13.5400625441
62.4737546581	-13.6048076531
