# $Id: FZ_KM_0001-0264.txt 181 2011-07-29 23:51:55Z pwessel $
> -IFZ_KM_0001-0264 -L"Untitled Path" -T"KM, USYD"
69.2630038344	-4.27348395887
69.5306200634	-3.90991917523
69.754975197	-3.62642346949
70.0253711181	-3.28615424233
70.2380895794	-3.03137173315
70.4016814065	-2.86806149615
70.6156862488	-2.64621211288
70.8034646807	-2.42387260064
70.9889505246	-2.14956493986
71.2166328835	-1.86698232837
71.3818591565	-1.7476291788
71.5920775159	-1.65854820587
71.7623628864	-1.62959323747
