# $Id: FZ_KM_0001-0073.txt 366 2015-03-24 01:13:09Z pwessel $
> -IFZ_KM_0001-0073 -L"Untitled Path" -T"KM, USYD"
106.153487632	-49.3881406641
105.760877482	-50.0099550903
105.372522515	-50.5262307262
105.054546881	-51.0151065134
104.797108359	-51.4795938385
104.631940364	-51.7673548479
103.991313726	-52.7557636701
103.587200631	-53.4323701242
103.317115955	-53.8805163367
102.536374733	-54.8848128999
101.614201521	-55.9355991584
100.879651992	-56.8229143999
100.286992096	-57.4978785752
