# $Id: FZ_KM_0001-0551.txt 181 2011-07-29 23:51:55Z pwessel $
> -IFZ_KM_0001-0551 -L"Untitled Path" -T"KM, USYD"
-33.1576830115	21.1260490483
-33.8190047562	21.2137823078
-34.4818674837	21.2654376427
-35.0428513509	21.3068911524
-35.426797656	21.2541706648
-35.8418791743	21.0849875106
-36.1143962956	20.8802741645
-36.3742617186	20.6563559258
-36.745209322	20.5781201097
-37.1546253264	20.4719977772
-37.9514367262	20.2348702797
-38.5280952417	20.0779900844
-38.884498919	19.9424987789
