# $Id$
> -IFZ_KM_0003-0079 -L"Untitled Path" -T"KM, USYD"
-13.5480174407	-7.45043347687
-14.0706267707	-7.56572436164
-15.4410548783	-7.87247809151
-17.039513624	-8.17936151966
-18.4770126701	-8.38826798532
-19.3215813942	-8.47693715038
-20.4977487947	-8.52182674647
-22.4438002043	-8.54699550966
-23.7650491161	-8.5598207924
-24.3220376916	-8.57127642149
-25.002597078	-8.61951597739
-25.9816459932	-8.6558129886
-26.7674497021	-8.74758405741
-28.0798915456	-8.93576120173
