# $Id: FZ_KM_0001-0169.txt 366 2015-03-24 01:13:09Z pwessel $
> -IFZ_KM_0001-0169 -L"Untitled Path" -T"KM, USYD"
50.7325992626	-18.122739611
51.1978670692	-17.8734493138
51.5456841978	-17.6983095155
51.8771551713	-17.5357073465
52.0995658182	-17.4074411873
52.4001578843	-17.1969557272
52.6516951472	-17.0240218278
53.0569881084	-16.7074137857
53.5467949374	-16.2524235719
53.9770525535	-15.8004845866
54.6545957272	-15.1456781253
55.0282272563	-14.7190590752
55.2494406775	-14.4788861531
