# $Id: FZ_KM_0001-1028.txt 181 2011-07-29 23:51:55Z pwessel $
> -IFZ_KM_0001-1028 -L"Untitled Path" -T"KM, USYD"
-14.6397251298	-33.6306303587
-14.8560205976	-33.5673205777
-15.2167586697	-33.6410121324
-15.718152897	-33.7375959247
-16.556702857	-33.8619006523
-17.5917897788	-34.0377701459
-18.5146899573	-34.1672933448
-19.7886835294	-34.3366363895
-20.8531196077	-34.448403924
-21.55219562	-34.517977068
-22.7621115847	-34.5764019079
-23.4763200475	-34.6039295702
-24.2926835111	-34.598635286
