# $Id: FZ_KM_0001-0113.txt 181 2011-07-29 23:51:55Z pwessel $
> -IFZ_KM_0001-0113 -L"Untitled Path" -T"KM, USYD"
148.325365597	-57.4033446967
148.102192769	-56.8169266374
147.962677312	-56.4287769002
147.800597805	-55.962958945
147.678935862	-55.4665494053
147.538733072	-55.0294594857
147.308544449	-54.4386448346
147.081400267	-53.6571842662
146.808345373	-52.8493254988
146.602844458	-52.1928235988
146.523870733	-51.8498035176
146.329418976	-50.9269158328
146.186451521	-50.3668228897
