# $Id: FZ_KM_0001-0425.txt 181 2011-07-29 23:51:55Z pwessel $
> -IFZ_KM_0001-0425 -L"Untitled Path" -T"KM, USYD"
-43.9503509273	20.3547660799
-43.434726578	20.2465027757
-42.9556727589	20.142288747
-42.4883860346	20.0435842863
-42.0714382435	19.9343714306
-41.550167331	19.753356023
-41.2785928576	19.7091219896
-40.9163486218	19.6770615278
-40.3656660303	19.6094836328
-40.1051238919	19.5254643646
-39.8047655589	19.4126997841
-39.43968655	19.2814968831
-39.0722754392	19.215986123
