# $Id: FZ_KM_0001-0426.txt 181 2011-07-29 23:51:55Z pwessel $
> -IFZ_KM_0001-0426 -L"Untitled Path" -T"KM, USYD"
-53.0165986849	21.9697833196
-52.3430114233	21.8818426664
-51.3509961466	21.8287397569
-50.9600662541	21.7711764814
-50.3026695658	21.6097560889
-49.8837173252	21.4931131415
-49.4279086004	21.3147462072
-48.9258747777	21.1519810262
-48.468717843	21.0410764437
-48.1476515435	20.9856434152
-47.8149402224	20.9587510313
-47.2160215172	20.9092277826
-46.8862171872	20.8706341019
