# $Id$
> -IFZ_KM_0003-0084 -L"Pitman" -T"KM, USYD"
-171.020138044	-64.2603878264
-171.637024346	-63.9915913448
-172.315865026	-63.8493644466
-172.698479974	-63.6431144064
-173.191039844	-63.4189318321
-174.019468106	-63.2010615215
-174.694565873	-63.0203258433
-175.386934483	-62.8333950646
-176.193390905	-62.6556804046
-177.26874255	-62.3905118955
-177.86805243	-62.2440737852
-178.554711503	-62.0673337387
-179.200520333	-61.8727982947
-179.933690616	-61.600597772
-180	-61.575680318
