# $Id: FZ_KM_0001-0777.txt 181 2011-07-29 23:51:55Z pwessel $
> -IFZ_KM_0001-0777 -L"Untitled Path" -T"KM, USYD"
149.037086769	26.8531896126
147.61238892	28.1012532581
146.809247294	28.7427338972
146.438604351	29.1274940374
146.279093712	29.2893519934
146.148173652	29.5082041654
145.805454074	30.1061237426
145.430412329	30.8740099978
145.118273789	31.6115620065
144.550015669	32.7357675122
144.164463038	33.4733918653
143.452798749	34.7624412534
142.793259103	36.1456997106
