# $Id: FZ_KM_0001-0276.txt 181 2011-07-29 23:51:55Z pwessel $
> -IFZ_KM_0001-0276 -L"Untitled Path" -T"KM, USYD"
67.7440771742	0.558037848901
67.911377106	0.849847360493
68.095752851	1.12136218601
68.4080365915	1.55187253467
68.7234324859	1.93998526672
69.041720797	2.28517082659
69.5064968988	2.69863565055
69.7883798323	2.96419936811
70.0592878021	3.24414415363
70.255078021	3.57814305871
70.368644739	4.05229940365
70.3944589303	4.41758252283
70.3715180397	4.86775809187
