# $Id: FZ_KM_0001-0656.txt 181 2011-07-29 23:51:55Z pwessel $
> -IFZ_KM_0001-0656 -L"Untitled Path" -T"KM, USYD"
-160.183335416	-50.5031321466
-160.52221302	-50.2556964932
-161.332608426	-49.7293848291
-161.983003806	-49.3135172055
-162.554013467	-48.9795200781
-163.569801838	-48.4336030719
-164.994062891	-47.7030782135
-165.586683544	-47.3834356772
-166.267751007	-46.8281620772
-166.792697544	-46.280968992
-167.840612662	-45.16903761
-168.492175102	-44.5648140813
-168.910701034	-44.1490184458
