# $Id: FZ_RM_0001-0027.txt 181 2011-07-29 23:51:55Z pwessel $
> -IFZ_RM_0001-0027 -L"Untitled Path" -T"RM, CU"
142.651990893	35.7337559522
142.826741384	35.2266998978
143.015309379	34.6974809253
143.224348051	34.0511449754
143.427864386	33.5977191147
143.742270137	32.9312862819
144.035257032	32.2028701179
144.442939667	31.339079781
144.848745559	30.5950998053
145.139860944	29.8524729619
145.451348897	29.1898757609
145.800205308	28.5486376493
146.09173772	28.1357933765
