# $Id: FZ_RM_0002-0086.txt 181 2011-07-29 23:51:55Z pwessel $
> -IFZ_RM_0002-0086 -L"Untitled Path" -T"RM, CU"
-151.854337226	55.82420174
-150.673295345	55.7017126343
-149.596586493	55.6090592499
-148.205543535	55.4853990863
-146.739731184	55.4126497802
-145.547006795	55.3599074419
-144.150409568	55.3028078477
-142.877992891	55.3209924376
-141.649306711	55.3903323813
-140.099937788	55.5759547761
-139.043871546	55.707277589
-137.599200899	55.8355424228
-136.441214398	55.9500267751
