# $Id: FZ_RM_0002-0060.txt 181 2011-07-29 23:51:55Z pwessel $
> -IFZ_RM_0002-0060 -L"Untitled Path" -T"RM, CU"
105.778805649	-9.26840863713
105.916818333	-10.241233674
106.112889951	-11.116550701
106.57136818	-12.0257555726
108.002790018	-13.0622368773
109.727775707	-14.0033624069
111.410736648	-14.7495010984
112.804415366	-15.3169788614
113.918998249	-15.8372245715
114.929088532	-16.2135662682
115.918175318	-16.4072405105
116.976045481	-16.4959642239
117.622211045	-16.736091215
