# $Id: FZ_RM_0002-0255.txt 181 2011-07-29 23:51:55Z pwessel $
> -IFZ_RM_0002-0255 -L"Untitled Path" -T"RM, CU"
-169.551352814	-43.584514991
-168.63504104	-44.3522024378
-167.747474927	-45.2654376066
-166.965087329	-46.127288592
-166.288379132	-46.8273984697
-165.425734996	-47.5228959789
-164.331041495	-47.9978374809
-163.36869895	-48.5513470623
-162.457440008	-49.0768270583
-161.159397249	-49.8693841109
-160.540290967	-50.2622489202
-160.049843035	-50.5677572531
-158.962786957	-51.1908158933
